# quiet sun power spectrum in [GHz] and [Jy]
3.525797821557583034e-02 1.270729643346140165e+03
3.847762557074378698e-02 1.471905010155044238e+03
4.224720301937574807e-02 1.802080739397093794e+03
4.640590195766590431e-02 2.236507152948028306e+03
5.095687886108118958e-02 2.761485422644407208e+03
5.582597511520409617e-02 3.382571523325868839e+03
6.129504592782534372e-02 4.123646910469259637e+03
6.732886162957632536e-02 5.139696756980080863e+03
7.386950972825646888e-02 6.314435721185562215e+03
8.112522226915155898e-02 7.387194310700373535e+03
8.913134689889166962e-02 9.568916445157543421e+03
9.768532486385159141e-02 1.181149039424752118e+04
1.071749451971773098e-01 1.451114732879675648e+04
1.172662982052039699e-01 1.767699213607950878e+04
1.290271805381053294e-01 2.173795811217057053e+04
1.417282627486434465e-01 2.697831331609453991e+04
1.554964614139701384e-01 3.316706783990865370e+04
1.702921037254330749e-01 4.061505101989948162e+04
1.871226715323143774e-01 5.018190615457171953e+04
2.056165398178202985e-01 6.189394004901965673e+04
2.253931305204970870e-01 7.619503388989536325e+04
2.470715987764249277e-01 9.350038146539725130e+04
2.714907176453850712e-01 1.157264706035149575e+05
2.979620307778844124e-01 1.414676996778472676e+05
3.270006078230638935e-01 1.530088792068990006e+05
3.588698249243063576e-01 1.663221064600803657e+05
3.917500193972447420e-01 1.831482047052498674e+05
4.307214388384927872e-01 2.131887587095372728e+05
4.743761919090614398e-01 2.454928848320410762e+05
5.033021511440312068e-01 2.662600625251228339e+05
6.625621359549203060e-01 2.616999238915331371e+05
7.253362587625147295e-01 2.726976645721214591e+05
7.901901092431691254e-01 2.885811947016079794e+05
8.735847744850263608e-01 2.991697530754454783e+05
9.643991130334915729e-01 3.169813538332112948e+05
1.041726362091018654e+00 3.238423238344965503e+05
1.159923409787488424e+00 3.320911400549942628e+05
1.266209579538922991e+00 3.425934344797830563e+05
1.376931723927665718e+00 3.597790993040107423e+05
1.534460979496400812e+00 3.670508624058497953e+05
1.658332222238591447e+00 3.778268561759141157e+05
1.834338588523345193e+00 3.938775110016035615e+05
2.020705549056206696e+00 3.831811899357224465e+05
2.219600291966749239e+00 4.052854755150974961e+05
2.424479604514823805e+00 4.248276243540098076e+05
2.660783749300805301e+00 4.700844349626920884e+05
2.920141306039210516e+00 5.315690210483196424e+05
3.204769692659462876e+00 5.957699098047481384e+05
3.517169313848369061e+00 6.835067415844113566e+05
3.860021520613857504e+00 7.841642521765638376e+05
4.236313478160519175e+00 9.112280018802902196e+05
4.649296052262988255e+00 1.064194658006807556e+06
5.092282110814768004e+00 1.243498154283408076e+06
5.505966931318823754e+00 1.350763817647891585e+06
6.520715673490784070e+00 1.898805465297638206e+06
7.156359186926509963e+00 2.184502212224885821e+06
7.854000229248651266e+00 2.545542098507342860e+06
8.619641232317729163e+00 2.956369717846186832e+06
9.205501626502336165e+00 3.153400969809522852e+06
