# max_slowly_varying sun power spectrum in [GHz] and [Jy]
3.402206011472618252e-01 1.017086696055392240e+05
3.730886162960551644e-01 1.188933985145279003e+05
4.076950483005542525e-01 1.392041487363433989e+05
4.476101123778926660e-01 1.715432237883317575e+05
4.913853299081742398e-01 2.000798156288539467e+05
5.391385262986202465e-01 2.375235138134392619e+05
5.909894374850739318e-01 2.860663036763471900e+05
6.483445040572594076e-01 3.381114817448874237e+05
7.124459139814096620e-01 4.086051683826865628e+05
7.852926079748957511e-01 4.915952511815150501e+05
8.581342235865185852e-01 5.766326774759454420e+05
9.405372058722907269e-01 6.945301104951557936e+05
1.033613732425509912e+00 8.122645710223242640e+05
1.127804050464249919e+00 9.643558332665148191e+05
1.241669861832849664e+00 1.132146853920665570e+06
1.365177052915814704e+00 1.297532959464352578e+06
1.500969334197139293e+00 1.487078973073135130e+06
1.644304995307935835e+00 1.713505843058930943e+06
1.798242598695320993e+00 1.950724419389470015e+06
1.980481715392005793e+00 2.189367723828033078e+06
2.173498708231928589e+00 2.382512376120132394e+06
2.385312445587637775e+00 2.546958328862950206e+06
2.637366254788942044e+00 2.733227118535099551e+06
2.878422483311173785e+00 2.730454053920114413e+06
3.146545083089081096e+00 2.687110361768771894e+06
3.458043457490627581e+00 2.740511917097611818e+06
3.701878518999635048e+00 2.704308089046375826e+06
3.994286529073170389e+00 2.401137021789459512e+06
4.383314650266842527e+00 2.208938380746012554e+06
4.810208660503842992e+00 2.002948636508884840e+06
5.278635711746550108e+00 1.774233142861281056e+06
5.801796540198350449e+00 1.517939060920086689e+06
6.346616848738004357e+00 1.330841800060813082e+06
6.936467344071111540e+00 1.156146481020406354e+06
7.574541224438188891e+00 1.033473024674347835e+06
8.213264030894494638e+00 9.253243527988980059e+05
