# max_noise_storm sun power spectrum in [GHz] and [Jy]
3.992609833154377869e-02 1.369260338901706599e+07
4.381556882868428704e-02 1.330225095195957087e+07
4.808403096294203843e-02 1.299510523353378288e+07
5.276799837043107122e-02 1.247109779887565412e+07
5.790815225434759600e-02 1.191508443577469140e+07
6.354918116849421483e-02 1.147285070697190054e+07
6.973932110831984610e-02 1.086422851076194644e+07
7.653257104912798703e-02 1.034527399083304778e+07
8.398728853134154737e-02 9.763830084812799469e+06
9.216799763902347453e-02 9.174153106636144221e+06
1.011454641514274722e-01 8.600932355577353388e+06
1.109971954113617848e-01 8.027727747518169694e+06
1.218086411429320365e-01 7.517770653500940651e+06
1.336724871583088448e-01 6.939130633467021398e+06
1.466916724761304081e-01 6.383688996578951366e+06
1.609778281062330674e-01 5.762693042959108949e+06
1.766558394812574040e-01 5.248608060998002067e+06
1.938595071710125239e-01 4.690832313930786215e+06
2.127374170523071983e-01 4.127547844113591127e+06
2.334531981561297209e-01 3.611759033477577846e+06
2.571944834251933543e-01 3.015044388256790582e+06
2.798704309137792223e-01 2.561164040968645830e+06
3.047997588609606123e-01 2.272133902525806334e+06
3.242051945435902582e-01 1.863234778749424499e+06
3.505083192356948096e-01 1.628587595062477281e+06
3.742553109603102279e-01 1.323676695051491261e+06
4.047060298350894092e-01 1.163241729538958054e+06
4.199924277425149399e-01 9.363639848118406953e+05
4.549233615972702593e-01 7.552276476166872308e+05
4.941175097884757950e-01 5.755752574874010170e+05
5.340636163204892650e-01 4.264848793598855264e+05
5.721905525256196778e-01 3.528037335850659292e+05
6.241536226063433279e-01 2.207519904483620194e+05
6.529022792118335250e-01 1.569632556106919365e+05
6.858156268345582118e-01 1.190435951610795164e+05
7.201654665202628092e-01 8.838155283511080779e+04
7.498695449739882779e-01 6.743519647318430361e+04
7.806338939909647223e-01 5.026238172560924431e+04
8.189885660012736768e-01 3.701582848409852159e+04
8.555363823872723650e-01 2.655255416382439580e+04
8.864345371745043778e-01 1.955836157702409764e+04
9.228889186516044951e-01 1.464991269176941933e+04
9.622510455487456316e-01 1.049596668038063763e+04
1.004616714634618768e+00 7.688052340877750794e+03
1.038275550499468514e+00 5.863460048779234057e+03
1.073293855047210421e+00 4.462084335523447407e+03
1.119911673038857414e+00 3.272221135560444509e+03
1.168567114495786985e+00 2.395134705142141684e+03
1.220365890740082060e+00 1.825064687854030353e+03
